# GMOS-S transmission curve for r (broadband)
# Columns are (1) wavelength in nm, (2) transmission in %.
# Data are from scans of the delivered filters for GMOS-S
# Scanned by Cristian Moreno, June 2017
# Table: Filtros FW1-2 Stand down June 2017_graph.xls
# Author: Hwihyun Kim
# Created: August 29, 2017
#
# Effective wavelength
# 630.0
# lambda r_G0326
#
    1200.0  75.81100000
    1199.8  75.52600000
    1199.6  75.23700000
    1199.4  74.95500000
    1199.2  74.64800000
    1199.0  74.35200000
    1198.8  74.00600000
    1198.6  73.66200000
    1198.4  73.34100000
    1198.2  72.97100000
    1198.0  72.59900000
    1197.8  72.20100000
    1197.6  71.85600000
    1197.4  71.45000000
    1197.2  71.03000000
    1197.0  70.60800000
    1196.8  70.15700000
    1196.6  69.76900000
    1196.4  69.32100000
    1196.2  68.84200000
    1196.0  68.40900000
    1195.8  67.95200000
    1195.6  67.51500000
    1195.4  67.03200000
    1195.2  66.56800000
    1195.0  66.11000000
    1194.8  65.65500000
    1194.6  65.17500000
    1194.4  64.71500000
    1194.2  64.22400000
    1194.0  63.73700000
    1193.8  63.26200000
    1193.6  62.75800000
    1193.4  62.28900000
    1193.2  61.79900000
    1193.0  61.35800000
    1192.8  60.89100000
    1192.6  60.40700000
    1192.4  59.96200000
    1192.2  59.50700000
    1192.0  59.03900000
    1191.8  58.59200000
    1191.6  58.09700000
    1191.4  57.70600000
    1191.2  57.21300000
    1191.0  56.78000000
    1190.8  56.33400000
    1190.6  55.89100000
    1190.4  55.49400000
    1190.2  55.08500000
    1190.0  54.64700000
    1189.8  54.25300000
    1189.6  53.85600000
    1189.4  53.45800000
    1189.2  53.06800000
    1189.0  52.64700000
    1188.8  52.31500000
    1188.6  51.94900000
    1188.4  51.51900000
    1188.2  51.18900000
    1188.0  50.82000000
    1187.8  50.52100000
    1187.6  50.18600000
    1187.4  49.85900000
    1187.2  49.53900000
    1187.0  49.25000000
    1186.8  48.94300000
    1186.6  48.65200000
    1186.4  48.36400000
    1186.2  48.10800000
    1186.0  47.85500000
    1185.8  47.57300000
    1185.6  47.35400000
    1185.4  47.11200000
    1185.2  46.89000000
    1185.0  46.66900000
    1184.8  46.45500000
    1184.6  46.25700000
    1184.4  46.09400000
    1184.2  45.88900000
    1184.0  45.73100000
    1183.8  45.55600000
    1183.6  45.41900000
    1183.4  45.25800000
    1183.2  45.13000000
    1183.0  45.00200000
    1182.8  44.88400000
    1182.6  44.78300000
    1182.4  44.69300000
    1182.2  44.60800000
    1182.0  44.51000000
    1181.8  44.45600000
    1181.6  44.38000000
    1181.4  44.34400000
    1181.2  44.30500000
    1181.0  44.25800000
    1180.8  44.26000000
    1180.6  44.22900000
    1180.4  44.22400000
    1180.2  44.23400000
    1180.0  44.28600000
    1179.8  44.27600000
    1179.6  44.32300000
    1179.4  44.37900000
    1179.2  44.41800000
    1179.0  44.50200000
    1178.8  44.56500000
    1178.6  44.68100000
    1178.4  44.76000000
    1178.2  44.86700000
    1178.0  45.00600000
    1177.8  45.12100000
    1177.6  45.26800000
    1177.4  45.40500000
    1177.2  45.59300000
    1177.0  45.73400000
    1176.8  45.93700000
    1176.6  46.11600000
    1176.4  46.31100000
    1176.2  46.54900000
    1176.0  46.75100000
    1175.8  46.99800000
    1175.6  47.21400000
    1175.4  47.48900000
    1175.2  47.73100000
    1175.0  48.01000000
    1174.8  48.28100000
    1174.6  48.57900000
    1174.4  48.85000000
    1174.2  49.16600000
    1174.0  49.46100000
    1173.8  49.78900000
    1173.6  50.08800000
    1173.4  50.45700000
    1173.2  50.75900000
    1173.0  51.12200000
    1172.8  51.47200000
    1172.6  51.81100000
    1172.4  52.17500000
    1172.2  52.53300000
    1172.0  52.89400000
    1171.8  53.22900000
    1171.6  53.58800000
    1171.4  53.93700000
    1171.2  54.29700000
    1171.0  54.61500000
    1170.8  54.97300000
    1170.6  55.30200000
    1170.4  55.62200000
    1170.2  55.95700000
    1170.0  56.23700000
    1169.8  56.51700000
    1169.6  56.76800000
    1169.4  57.03100000
    1169.2  57.22200000
    1169.0  57.43500000
    1168.8  57.58400000
    1168.6  57.72300000
    1168.4  57.87000000
    1168.2  57.93700000
    1168.0  57.99500000
    1167.8  58.00300000
    1167.6  57.99600000
    1167.4  57.96400000
    1167.2  57.86500000
    1167.0  57.75300000
    1166.8  57.54700000
    1166.6  57.36100000
    1166.4  57.10300000
    1166.2  56.84700000
    1166.0  56.48800000
    1165.8  56.11700000
    1165.6  55.68000000
    1165.4  55.28600000
    1165.2  54.76000000
    1165.0  54.23700000
    1164.8  53.65300000
    1164.6  53.04200000
    1164.4  52.38000000
    1164.2  51.62500000
    1164.0  50.97200000
    1163.8  50.19000000
    1163.6  49.48800000
    1163.4  48.62500000
    1163.2  47.84000000
    1163.0  46.94000000
    1162.8  46.17100000
    1162.6  45.29600000
    1162.4  44.41700000
    1162.2  43.52600000
    1162.0  42.66300000
    1161.8  41.75900000
    1161.6  40.75900000
    1161.4  39.87800000
    1161.2  38.96800000
    1161.0  38.13900000
    1160.8  37.14300000
    1160.6  36.35400000
    1160.4  35.43800000
    1160.2  34.69400000
    1160.0  33.82100000
    1159.8  32.99800000
    1159.6  32.18800000
    1159.4  31.39100000
    1159.2  30.57300000
    1159.0  29.76000000
    1158.8  29.03000000
    1158.6  28.25900000
    1158.4  27.61700000
    1158.2  26.81600000
    1158.0  26.18700000
    1157.8  25.51600000
    1157.6  24.92800000
    1157.4  24.22000000
    1157.2  23.64500000
    1157.0  23.04300000
    1156.8  22.50000000
    1156.6  21.92900000
    1156.4  21.38700000
    1156.2  20.80700000
    1156.0  20.30500000
    1155.8  19.81400000
    1155.6  19.29800000
    1155.4  18.84100000
    1155.2  18.39700000
    1155.0  18.00100000
    1154.8  17.55600000
    1154.6  17.17200000
    1154.4  16.76400000
    1154.2  16.40000000
    1154.0  15.99700000
    1153.8  15.66900000
    1153.6  15.27500000
    1153.4  15.00300000
    1153.2  14.64800000
    1153.0  14.35200000
    1152.8  14.04100000
    1152.6  13.75300000
    1152.4  13.49900000
    1152.2  13.19600000
    1152.0  12.93100000
    1151.8  12.69600000
    1151.6  12.45900000
    1151.4  12.22400000
    1151.2  12.00600000
    1151.0  11.77100000
    1150.8  11.56600000
    1150.6  11.37800000
    1150.4  11.14100000
    1150.2  10.97000000
    1150.0  10.77800000
    1149.8  10.63000000
    1149.6  10.43500000
    1149.4  10.28800000
    1149.2  10.14600000
    1149.0   9.97260000
    1148.8   9.84570000
    1148.6   9.68670000
    1148.4   9.56950000
    1148.2   9.44870000
    1148.0   9.31710000
    1147.8   9.17840000
    1147.6   9.05690000
    1147.4   8.93140000
    1147.2   8.86170000
    1147.0   8.75510000
    1146.8   8.65160000
    1146.6   8.56990000
    1146.4   8.47030000
    1146.2   8.38190000
    1146.0   8.32520000
    1145.8   8.25610000
    1145.6   8.15720000
    1145.4   8.08010000
    1145.2   8.00650000
    1145.0   7.95450000
    1144.8   7.88910000
    1144.6   7.82790000
    1144.4   7.76280000
    1144.2   7.72240000
    1144.0   7.67270000
    1143.8   7.63950000
    1143.6   7.58760000
    1143.4   7.52210000
    1143.2   7.49090000
    1143.0   7.46930000
    1142.8   7.40370000
    1142.6   7.39060000
    1142.4   7.36100000
    1142.2   7.30930000
    1142.0   7.29300000
    1141.8   7.28670000
    1141.6   7.24940000
    1141.4   7.24300000
    1141.2   7.21290000
    1141.0   7.20500000
    1140.8   7.18650000
    1140.6   7.17060000
    1140.4   7.15560000
    1140.2   7.13940000
    1140.0   7.11080000
    1139.8   7.11950000
    1139.6   7.11800000
    1139.4   7.10320000
    1139.2   7.07460000
    1139.0   7.09500000
    1138.8   7.06430000
    1138.6   7.08430000
    1138.4   7.03200000
    1138.2   7.05300000
    1138.0   7.03730000
    1137.8   7.03200000
    1137.6   7.00710000
    1137.4   7.00970000
    1137.2   6.97180000
    1137.0   6.94900000
    1136.8   6.92700000
    1136.6   6.91300000
    1136.4   6.87350000
    1136.2   6.86230000
    1136.0   6.82120000
    1135.8   6.78270000
    1135.6   6.72930000
    1135.4   6.69540000
    1135.2   6.65430000
    1135.0   6.58970000
    1134.8   6.55300000
    1134.6   6.45750000
    1134.4   6.38470000
    1134.2   6.29120000
    1134.0   6.24340000
    1133.8   6.13920000
    1133.6   6.05110000
    1133.4   5.97130000
    1133.2   5.84220000
    1133.0   5.75350000
    1132.8   5.65070000
    1132.6   5.52030000
    1132.4   5.41340000
    1132.2   5.29480000
    1132.0   5.16050000
    1131.8   5.04010000
    1131.6   4.92160000
    1131.4   4.80030000
    1131.2   4.64010000
    1131.0   4.51480000
    1130.8   4.39450000
    1130.6   4.24550000
    1130.4   4.14050000
    1130.2   3.99120000
    1130.0   3.85500000
    1129.8   3.74290000
    1129.6   3.58480000
    1129.4   3.47630000
    1129.2   3.34800000
    1129.0   3.22310000
    1128.8   3.10200000
    1128.6   2.99830000
    1128.4   2.87130000
    1128.2   2.79230000
    1128.0   2.66370000
    1127.8   2.57160000
    1127.6   2.45530000
    1127.4   2.38110000
    1127.2   2.25700000
    1127.0   2.16300000
    1126.8   2.08720000
    1126.6   2.00870000
    1126.4   1.94430000
    1126.2   1.86170000
    1126.0   1.80550000
    1125.8   1.71960000
    1125.6   1.63490000
    1125.4   1.57640000
    1125.2   1.52080000
    1125.0   1.45230000
    1124.8   1.42910000
    1124.6   1.35320000
    1124.4   1.29390000
    1124.2   1.25860000
    1124.0   1.20170000
    1123.8   1.14350000
    1123.6   1.11100000
    1123.4   1.08570000
    1123.2   1.03350000
    1123.0   1.00830000
    1122.8   0.98206000
    1122.6   0.93341000
    1122.4   0.90227000
    1122.2   0.88020000
    1122.0   0.84796000
    1121.8   0.79359000
    1121.6   0.80804000
    1121.4   0.78359000
    1121.2   0.70834000
    1121.0   0.71817000
    1120.8   0.69698000
    1120.6   0.66282000
    1120.4   0.66334000
    1120.2   0.63156000
    1120.0   0.62763000
    1119.8   0.55068000
    1119.6   0.54937000
    1119.4   0.55074000
    1119.2   0.53620000
    1119.0   0.54643000
    1118.8   0.51209000
    1118.6   0.51064000
    1118.4   0.46404000
    1118.2   0.49709000
    1118.0   0.46851000
    1117.8   0.43994000
    1117.6   0.43844000
    1117.4   0.42813000
    1117.2   0.41619000
    1117.0   0.40874000
    1116.8   0.41779000
    1116.6   0.38332000
    1116.4   0.39079000
    1116.2   0.40001000
    1116.0   0.38037000
    1115.8   0.36935000
    1115.6   0.36214000
    1115.4   0.34700000
    1115.2   0.34703000
    1115.0   0.33042000
    1114.8   0.32600000
    1114.6   0.30479000
    1114.4   0.33635000
    1114.2   0.30485000
    1114.0   0.30570000
    1113.8   0.32362000
    1113.6   0.31331000
    1113.4   0.29258000
    1113.2   0.29082000
    1113.0   0.29268000
    1112.8   0.26933000
    1112.6   0.28173000
    1112.4   0.27847000
    1112.2   0.27250000
    1112.0   0.26651000
    1111.8   0.25943000
    1111.6   0.27099000
    1111.4   0.26075000
    1111.2   0.24884000
    1111.0   0.24133000
    1110.8   0.25648000
    1110.6   0.24826000
    1110.4   0.24026000
    1110.2   0.24530000
    1110.0   0.23950000
    1109.8   0.23789000
    1109.6   0.22753000
    1109.4   0.22427000
    1109.2   0.24681000
    1109.0   0.20962000
    1108.8   0.23534000
    1108.6   0.21547000
    1108.4   0.22300000
    1108.2   0.23314000
    1108.0   0.20654000
    1107.8   0.23278000
    1107.6   0.22120000
    1107.4   0.19745000
    1107.2   0.21398000
    1107.0   0.20509000
    1106.8   0.19845000
    1106.6   0.19557000
    1106.4   0.18982000
    1106.2   0.21345000
    1106.0   0.19836000
    1105.8   0.18380000
    1105.6   0.17788000
    1105.4   0.22387000
    1105.2   0.18616000
    1105.0   0.20631000
    1104.8   0.18689000
    1104.6   0.17611000
    1104.4   0.20455000
    1104.2   0.18933000
    1104.0   0.18648000
    1103.8   0.19412000
    1103.6   0.18547000
    1103.4   0.18822000
    1103.2   0.17734000
    1103.0   0.18210000
    1102.8   0.17496000
    1102.6   0.18191000
    1102.4   0.17634000
    1102.2   0.19388000
    1102.0   0.18414000
    1101.8   0.16700000
    1101.6   0.18322000
    1101.4   0.16784000
    1101.2   0.19487000
    1101.0   0.16004000
    1100.8   0.17488000
    1100.6   0.18644000
    1100.4   0.19450000
    1100.2   0.18692000
    1100.0   0.17483000
    1099.8   0.19905000
    1099.6   0.17328000
    1099.4   0.18002000
    1099.2   0.16647000
    1099.0   0.18240000
    1098.8   0.18419000
    1098.6   0.16369000
    1098.4   0.16937000
    1098.2   0.17592000
    1098.0   0.19011000
    1097.8   0.15222000
    1097.6   0.15955000
    1097.4   0.15779000
    1097.2   0.16245000
    1097.0   0.16734000
    1096.8   0.16432000
    1096.6   0.14912000
    1096.4   0.15171000
    1096.2   0.17093000
    1096.0   0.16989000
    1095.8   0.17808000
    1095.6   0.17756000
    1095.4   0.16415000
    1095.2   0.15582000
    1095.0   0.16530000
    1094.8   0.16201000
    1094.6   0.16003000
    1094.4   0.16342000
    1094.2   0.17781000
    1094.0   0.16543000
    1093.8   0.15882000
    1093.6   0.14135000
    1093.4   0.16293000
    1093.2   0.16757000
    1093.0   0.15357000
    1092.8   0.16336000
    1092.6   0.15269000
    1092.4   0.17923000
    1092.2   0.13003000
    1092.0   0.16875000
    1091.8   0.16594000
    1091.6   0.15642000
    1091.4   0.18400000
    1091.2   0.14815000
    1091.0   0.16317000
    1090.8   0.15749000
    1090.6   0.16158000
    1090.4   0.16615000
    1090.2   0.17166000
    1090.0   0.15063000
    1089.8   0.16152000
    1089.6   0.17441000
    1089.4   0.15803000
    1089.2   0.16372000
    1089.0   0.14591000
    1088.8   0.15036000
    1088.6   0.18821000
    1088.4   0.14659000
    1088.2   0.16064000
    1088.0   0.16671000
    1087.8   0.16491000
    1087.6   0.13929000
    1087.4   0.16829000
    1087.2   0.17097000
    1087.0   0.16809000
    1086.8   0.14412000
    1086.6   0.16422000
    1086.4   0.15438000
    1086.2   0.14737000
    1086.0   0.16999000
    1085.8   0.14424000
    1085.6   0.16210000
    1085.4   0.18918000
    1085.2   0.16492000
    1085.0   0.15419000
    1084.8   0.15943000
    1084.6   0.16786000
    1084.4   0.16416000
    1084.2   0.16182000
    1084.0   0.16533000
    1083.8   0.14271000
    1083.6   0.15491000
    1083.4   0.17299000
    1083.2   0.15807000
    1083.0   0.17100000
    1082.8   0.16072000
    1082.6   0.16045000
    1082.4   0.15804000
    1082.2   0.15919000
    1082.0   0.16970000
    1081.8   0.14570000
    1081.6   0.16680000
    1081.4   0.15939000
    1081.2   0.14141000
    1081.0   0.13538000
    1080.8   0.16014000
    1080.6   0.17138000
    1080.4   0.16365000
    1080.2   0.16076000
    1080.0   0.16085000
    1079.8   0.14866000
    1079.6   0.16387000
    1079.4   0.17073000
    1079.2   0.16018000
    1079.0   0.15878000
    1078.8   0.18012000
    1078.6   0.15885000
    1078.4   0.16522000
    1078.2   0.16680000
    1078.0   0.16088000
    1077.8   0.15291000
    1077.6   0.17671000
    1077.4   0.17989000
    1077.2   0.15751000
    1077.0   0.16801000
    1076.8   0.15781000
    1076.6   0.15160000
    1076.4   0.16810000
    1076.2   0.15340000
    1076.0   0.16044000
    1075.8   0.15610000
    1075.6   0.17856000
    1075.4   0.15320000
    1075.2   0.16536000
    1075.0   0.17244000
    1074.8   0.15733000
    1074.6   0.15928000
    1074.4   0.14252000
    1074.2   0.16865000
    1074.0   0.16785000
    1073.8   0.15100000
    1073.6   0.15469000
    1073.4   0.16313000
    1073.2   0.16467000
    1073.0   0.16480000
    1072.8   0.17426000
    1072.6   0.16848000
    1072.4   0.14753000
    1072.2   0.18459000
    1072.0   0.16319000
    1071.8   0.16754000
    1071.6   0.16677000
    1071.4   0.17149000
    1071.2   0.16042000
    1071.0   0.17093000
    1070.8   0.15724000
    1070.6   0.15667000
    1070.4   0.17672000
    1070.2   0.16191000
    1070.0   0.15481000
    1069.8   0.16444000
    1069.6   0.16154000
    1069.4   0.17518000
    1069.2   0.16224000
    1069.0   0.16222000
    1068.8   0.18634000
    1068.6   0.16690000
    1068.4   0.16043000
    1068.2   0.15101000
    1068.0   0.17073000
    1067.8   0.15881000
    1067.6   0.18875000
    1067.4   0.16843000
    1067.2   0.16760000
    1067.0   0.18417000
    1066.8   0.17783000
    1066.6   0.17829000
    1066.4   0.15976000
    1066.2   0.17275000
    1066.0   0.18407000
    1065.8   0.17571000
    1065.6   0.17869000
    1065.4   0.16416000
    1065.2   0.16735000
    1065.0   0.19936000
    1064.8   0.15894000
    1064.6   0.18077000
    1064.4   0.19161000
    1064.2   0.17848000
    1064.0   0.19506000
    1063.8   0.19666000
    1063.6   0.17354000
    1063.4   0.20513000
    1063.2   0.17526000
    1063.0   0.17975000
    1062.8   0.16627000
    1062.6   0.16044000
    1062.4   0.18002000
    1062.2   0.20098000
    1062.0   0.16809000
    1061.8   0.18908000
    1061.6   0.19032000
    1061.4   0.17982000
    1061.2   0.19049000
    1061.0   0.15745000
    1060.8   0.18315000
    1060.6   0.15109000
    1060.4   0.17245000
    1060.2   0.17522000
    1060.0   0.18733000
    1059.8   0.17230000
    1059.6   0.15287000
    1059.4   0.18448000
    1059.2   0.17111000
    1059.0   0.15105000
    1058.8   0.16199000
    1058.6   0.15711000
    1058.4   0.17770000
    1058.2   0.16492000
    1058.0   0.17261000
    1057.8   0.15424000
    1057.6   0.18950000
    1057.4   0.14663000
    1057.2   0.15468000
    1057.0   0.16262000
    1056.8   0.16232000
    1056.6   0.16215000
    1056.4   0.15613000
    1056.2   0.16533000
    1056.0   0.14071000
    1055.8   0.16305000
    1055.6   0.16700000
    1055.4   0.13871000
    1055.2   0.14300000
    1055.0   0.17334000
    1054.8   0.16014000
    1054.6   0.14778000
    1054.4   0.15205000
    1054.2   0.13920000
    1054.0   0.15233000
    1053.8   0.15697000
    1053.6   0.16009000
    1053.4   0.16964000
    1053.2   0.15795000
    1053.0   0.16410000
    1052.8   0.14834000
    1052.6   0.13527000
    1052.4   0.15214000
    1052.2   0.14695000
    1052.0   0.18190000
    1051.8   0.16219000
    1051.6   0.16954000
    1051.4   0.13082000
    1051.2   0.16487000
    1051.0   0.15161000
    1050.8   0.16344000
    1050.6   0.15459000
    1050.4   0.16240000
    1050.2   0.14384000
    1050.0   0.14901000
    1049.8   0.14696000
    1049.6   0.15239000
    1049.4   0.16038000
    1049.2   0.14688000
    1049.0   0.14077000
    1048.8   0.14055000
    1048.6   0.13728000
    1048.4   0.15750000
    1048.2   0.16576000
    1048.0   0.15858000
    1047.8   0.15739000
    1047.6   0.14092000
    1047.4   0.14932000
    1047.2   0.15591000
    1047.0   0.15088000
    1046.8   0.12744000
    1046.6   0.15864000
    1046.4   0.16029000
    1046.2   0.15448000
    1046.0   0.16034000
    1045.8   0.14504000
    1045.6   0.15739000
    1045.4   0.14979000
    1045.2   0.13324000
    1045.0   0.17038000
    1044.8   0.13655000
    1044.6   0.14063000
    1044.4   0.12594000
    1044.2   0.14972000
    1044.0   0.15158000
    1043.8   0.13286000
    1043.6   0.14982000
    1043.4   0.15859000
    1043.2   0.16441000
    1043.0   0.11989000
    1042.8   0.14645000
    1042.6   0.16033000
    1042.4   0.14677000
    1042.2   0.13765000
    1042.0   0.15081000
    1041.8   0.14485000
    1041.6   0.14430000
    1041.4   0.14600000
    1041.2   0.15044000
    1041.0   0.14980000
    1040.8   0.13671000
    1040.6   0.15452000
    1040.4   0.14265000
    1040.2   0.16025000
    1040.0   0.15471000
    1039.8   0.13206000
    1039.6   0.15017000
    1039.4   0.13793000
    1039.2   0.12972000
    1039.0   0.13164000
    1038.8   0.14272000
    1038.6   0.15001000
    1038.4   0.14036000
    1038.2   0.13898000
    1038.0   0.17563000
    1037.8   0.15742000
    1037.6   0.14651000
    1037.4   0.13337000
    1037.2   0.14563000
    1037.0   0.14149000
    1036.8   0.16195000
    1036.6   0.15224000
