# GMOS-S transmission curve for Ha (H-alpha)
# Columns are (1) wavelength in nm, (2) transmission in %.
# Data are from scans of the delivered filters for GMOS-S
# Scanned by Cristian Moreno, June 2017
# Table: Filtros FW1-2 Stand down June 2017_graph.xls
# Author: Hwihyun Kim
# Created: August 29, 2017
#
# Effective wavelength
# 656.0
# lambda Ha_G0336
#
    1200.0  39.59500000
    1199.8  39.04600000
    1199.6  38.49900000
    1199.4  38.00900000
    1199.2  37.58200000
    1199.0  37.12800000
    1198.8  36.69100000
    1198.6  36.25000000
    1198.4  35.85100000
    1198.2  35.43300000
    1198.0  35.03300000
    1197.8  34.58900000
    1197.6  34.19800000
    1197.4  33.80800000
    1197.2  33.38400000
    1197.0  32.97800000
    1196.8  32.58900000
    1196.6  32.26000000
    1196.4  31.88000000
    1196.2  31.54200000
    1196.0  31.26200000
    1195.8  30.99000000
    1195.6  30.75000000
    1195.4  30.51900000
    1195.2  30.35600000
    1195.0  30.18400000
    1194.8  30.06100000
    1194.6  29.94800000
    1194.4  29.86400000
    1194.2  29.79300000
    1194.0  29.73200000
    1193.8  29.69900000
    1193.6  29.65400000
    1193.4  29.61300000
    1193.2  29.56800000
    1193.0  29.52600000
    1192.8  29.49000000
    1192.6  29.41700000
    1192.4  29.38500000
    1192.2  29.33700000
    1192.0  29.26300000
    1191.8  29.22800000
    1191.6  29.17600000
    1191.4  29.12900000
    1191.2  29.09300000
    1191.0  29.06700000
    1190.8  29.07000000
    1190.6  29.08400000
    1190.4  29.12800000
    1190.2  29.20000000
    1190.0  29.26500000
    1189.8  29.39900000
    1189.6  29.48400000
    1189.4  29.64000000
    1189.2  29.78100000
    1189.0  29.94000000
    1188.8  30.07900000
    1188.6  30.25500000
    1188.4  30.40200000
    1188.2  30.60000000
    1188.0  30.71500000
    1187.8  30.84600000
    1187.6  30.95900000
    1187.4  31.05600000
    1187.2  31.12600000
    1187.0  31.19600000
    1186.8  31.23500000
    1186.6  31.26500000
    1186.4  31.29000000
    1186.2  31.29900000
    1186.0  31.31800000
    1185.8  31.33000000
    1185.6  31.33100000
    1185.4  31.34200000
    1185.2  31.34900000
    1185.0  31.39000000
    1184.8  31.40400000
    1184.6  31.40300000
    1184.4  31.44000000
    1184.2  31.44900000
    1184.0  31.43900000
    1183.8  31.41200000
    1183.6  31.41000000
    1183.4  31.37700000
    1183.2  31.29700000
    1183.0  31.19000000
    1182.8  31.07100000
    1182.6  30.91700000
    1182.4  30.73000000
    1182.2  30.48600000
    1182.0  30.22700000
    1181.8  29.94000000
    1181.6  29.61300000
    1181.4  29.27900000
    1181.2  28.89100000
    1181.0  28.52100000
    1180.8  28.11800000
    1180.6  27.73100000
    1180.4  27.30800000
    1180.2  26.90200000
    1180.0  26.51900000
    1179.8  26.09600000
    1179.6  25.66200000
    1179.4  25.26200000
    1179.2  24.90700000
    1179.0  24.50600000
    1178.8  24.11100000
    1178.6  23.72200000
    1178.4  23.32500000
    1178.2  22.90900000
    1178.0  22.48700000
    1177.8  22.05200000
    1177.6  21.64700000
    1177.4  21.17800000
    1177.2  20.71800000
    1177.0  20.23900000
    1176.8  19.78100000
    1176.6  19.33100000
    1176.4  18.80700000
    1176.2  18.32900000
    1176.0  17.82600000
    1175.8  17.38500000
    1175.6  16.86000000
    1175.4  16.41000000
    1175.2  15.94200000
    1175.0  15.51900000
    1174.8  15.12700000
    1174.6  14.66600000
    1174.4  14.26600000
    1174.2  13.89700000
    1174.0  13.51900000
    1173.8  13.13500000
    1173.6  12.80900000
    1173.4  12.46200000
    1173.2  12.15000000
    1173.0  11.76700000
    1172.8  11.42100000
    1172.6  11.13400000
    1172.4  10.77100000
    1172.2  10.48200000
    1172.0  10.10000000
    1171.8   9.79790000
    1171.6   9.45320000
    1171.4   9.15220000
    1171.2   8.81190000
    1171.0   8.52500000
    1170.8   8.18710000
    1170.6   7.91630000
    1170.4   7.59610000
    1170.2   7.31320000
    1170.0   7.05280000
    1169.8   6.78920000
    1169.6   6.55240000
    1169.4   6.27520000
    1169.2   6.07460000
    1169.0   5.87500000
    1168.8   5.67180000
    1168.6   5.43280000
    1168.4   5.27110000
    1168.2   5.05350000
    1168.0   4.87830000
    1167.8   4.69820000
    1167.6   4.53340000
    1167.4   4.36180000
    1167.2   4.18320000
    1167.0   4.03600000
    1166.8   3.83940000
    1166.6   3.72100000
    1166.4   3.54440000
    1166.2   3.43120000
    1166.0   3.26490000
    1165.8   3.11250000
    1165.6   2.96100000
    1165.4   2.88700000
    1165.2   2.73470000
    1165.0   2.62330000
    1164.8   2.52420000
    1164.6   2.38610000
    1164.4   2.29630000
    1164.2   2.20980000
    1164.0   2.12160000
    1163.8   2.04810000
    1163.6   1.95930000
    1163.4   1.91960000
    1163.2   1.83320000
    1163.0   1.73830000
    1162.8   1.70870000
    1162.6   1.62190000
    1162.4   1.56650000
    1162.2   1.51340000
    1162.0   1.44210000
    1161.8   1.37260000
    1161.6   1.32530000
    1161.4   1.26210000
    1161.2   1.21800000
    1161.0   1.17390000
    1160.8   1.12840000
    1160.6   1.08060000
    1160.4   1.02690000
    1160.2   1.02450000
    1160.0   0.94680000
    1159.8   0.92082000
    1159.6   0.91933000
    1159.4   0.86309000
    1159.2   0.83240000
    1159.0   0.80581000
    1158.8   0.77831000
    1158.6   0.73890000
    1158.4   0.74258000
    1158.2   0.70231000
    1158.0   0.68267000
    1157.8   0.67499000
    1157.6   0.65852000
    1157.4   0.63019000
    1157.2   0.64303000
    1157.0   0.59658000
    1156.8   0.59502000
    1156.6   0.56139000
    1156.4   0.54927000
    1156.2   0.52961000
    1156.0   0.51075000
    1155.8   0.48118000
    1155.6   0.46589000
    1155.4   0.45137000
    1155.2   0.46060000
    1155.0   0.44213000
    1154.8   0.44942000
    1154.6   0.42172000
    1154.4   0.40142000
    1154.2   0.42589000
    1154.0   0.39693000
    1153.8   0.39529000
    1153.6   0.35689000
    1153.4   0.39913000
    1153.2   0.36875000
    1153.0   0.36031000
    1152.8   0.35714000
    1152.6   0.34228000
    1152.4   0.34556000
    1152.2   0.33197000
    1152.0   0.31692000
    1151.8   0.31807000
    1151.6   0.29222000
    1151.4   0.31390000
    1151.2   0.29446000
    1151.0   0.28042000
    1150.8   0.29059000
    1150.6   0.28858000
    1150.4   0.28426000
    1150.2   0.27949000
    1150.0   0.27311000
    1149.8   0.28332000
    1149.6   0.25837000
    1149.4   0.26558000
    1149.2   0.28230000
    1149.0   0.25241000
    1148.8   0.24534000
    1148.6   0.23894000
    1148.4   0.25068000
    1148.2   0.23782000
    1148.0   0.23662000
    1147.8   0.24660000
    1147.6   0.22100000
    1147.4   0.22009000
    1147.2   0.23711000
    1147.0   0.22979000
    1146.8   0.21891000
    1146.6   0.21472000
    1146.4   0.21431000
    1146.2   0.21128000
    1146.0   0.22661000
    1145.8   0.22382000
    1145.6   0.20858000
    1145.4   0.22843000
    1145.2   0.20804000
    1145.0   0.19923000
    1144.8   0.21268000
    1144.6   0.19721000
    1144.4   0.21051000
    1144.2   0.20714000
    1144.0   0.20408000
    1143.8   0.20936000
    1143.6   0.18195000
    1143.4   0.19329000
    1143.2   0.19206000
    1143.0   0.21135000
    1142.8   0.18421000
    1142.6   0.20819000
    1142.4   0.18714000
    1142.2   0.19617000
    1142.0   0.17667000
    1141.8   0.20231000
    1141.6   0.18441000
    1141.4   0.19852000
    1141.2   0.18191000
    1141.0   0.19959000
    1140.8   0.18306000
    1140.6   0.16728000
    1140.4   0.17300000
    1140.2   0.18176000
    1140.0   0.18264000
    1139.8   0.16265000
    1139.6   0.18942000
    1139.4   0.18480000
    1139.2   0.14975000
    1139.0   0.18984000
    1138.8   0.15501000
    1138.6   0.18599000
    1138.4   0.16050000
    1138.2   0.16919000
    1138.0   0.19151000
    1137.8   0.19373000
    1137.6   0.18025000
    1137.4   0.15731000
    1137.2   0.17816000
    1137.0   0.16374000
    1136.8   0.17463000
    1136.6   0.16446000
    1136.4   0.17824000
    1136.2   0.19661000
    1136.0   0.17289000
    1135.8   0.17826000
    1135.6   0.15502000
    1135.4   0.16560000
    1135.2   0.15646000
    1135.0   0.17753000
    1134.8   0.16750000
    1134.6   0.17338000
    1134.4   0.16971000
    1134.2   0.15234000
    1134.0   0.17633000
    1133.8   0.15807000
    1133.6   0.17058000
    1133.4   0.17242000
    1133.2   0.16735000
    1133.0   0.17640000
    1132.8   0.17862000
    1132.6   0.16121000
    1132.4   0.15779000
    1132.2   0.17803000
    1132.0   0.17340000
    1131.8   0.14581000
    1131.6   0.16244000
    1131.4   0.17804000
    1131.2   0.15386000
    1131.0   0.15750000
    1130.8   0.18517000
    1130.6   0.14633000
    1130.4   0.16844000
    1130.2   0.18393000
    1130.0   0.14949000
    1129.8   0.18281000
    1129.6   0.15645000
    1129.4   0.15812000
    1129.2   0.18084000
    1129.0   0.16517000
    1128.8   0.16985000
    1128.6   0.16603000
    1128.4   0.16524000
    1128.2   0.19463000
    1128.0   0.16988000
    1127.8   0.17656000
    1127.6   0.18200000
    1127.4   0.16877000
    1127.2   0.16422000
    1127.0   0.16002000
    1126.8   0.15629000
    1126.6   0.17505000
    1126.4   0.16853000
    1126.2   0.17491000
    1126.0   0.16901000
    1125.8   0.16751000
    1125.6   0.15698000
    1125.4   0.15181000
    1125.2   0.19010000
    1125.0   0.16526000
    1124.8   0.15694000
    1124.6   0.15634000
    1124.4   0.16138000
    1124.2   0.17127000
    1124.0   0.17493000
    1123.8   0.16290000
    1123.6   0.16405000
    1123.4   0.16895000
    1123.2   0.17620000
    1123.0   0.16601000
    1122.8   0.17369000
    1122.6   0.17790000
    1122.4   0.17160000
    1122.2   0.15543000
    1122.0   0.18059000
    1121.8   0.17789000
    1121.6   0.17899000
    1121.4   0.18844000
    1121.2   0.15984000
    1121.0   0.16285000
    1120.8   0.18230000
    1120.6   0.16715000
    1120.4   0.17664000
    1120.2   0.18206000
    1120.0   0.17942000
    1119.8   0.16742000
    1119.6   0.16588000
    1119.4   0.15384000
    1119.2   0.17349000
    1119.0   0.17938000
    1118.8   0.16432000
    1118.6   0.18248000
    1118.4   0.15078000
    1118.2   0.17650000
    1118.0   0.17341000
    1117.8   0.16443000
    1117.6   0.17202000
    1117.4   0.18084000
    1117.2   0.16390000
    1117.0   0.17633000
    1116.8   0.17747000
    1116.6   0.15079000
    1116.4   0.17149000
    1116.2   0.17950000
    1116.0   0.16554000
    1115.8   0.16853000
    1115.6   0.17298000
    1115.4   0.16742000
    1115.2   0.18655000
    1115.0   0.16891000
    1114.8   0.15798000
    1114.6   0.15081000
    1114.4   0.17147000
    1114.2   0.15687000
    1114.0   0.19254000
    1113.8   0.20371000
    1113.6   0.19373000
    1113.4   0.18861000
    1113.2   0.14873000
    1113.0   0.19123000
    1112.8   0.16544000
    1112.6   0.17933000
    1112.4   0.16404000
    1112.2   0.19881000
    1112.0   0.16123000
    1111.8   0.16579000
    1111.6   0.17786000
    1111.4   0.16137000
    1111.2   0.16899000
    1111.0   0.16435000
    1110.8   0.15211000
    1110.6   0.16863000
    1110.4   0.15828000
    1110.2   0.16254000
    1110.0   0.16554000
    1109.8   0.17145000
    1109.6   0.17768000
    1109.4   0.16238000
    1109.2   0.17587000
    1109.0   0.16725000
    1108.8   0.17489000
    1108.6   0.18059000
    1108.4   0.16405000
    1108.2   0.17272000
    1108.0   0.17019000
    1107.8   0.18002000
    1107.6   0.18348000
    1107.4   0.16268000
    1107.2   0.17623000
    1107.0   0.17033000
    1106.8   0.17484000
    1106.6   0.16436000
    1106.4   0.15685000
    1106.2   0.16230000
    1106.0   0.17249000
    1105.8   0.16701000
    1105.6   0.15208000
    1105.4   0.16966000
    1105.2   0.16231000
    1105.0   0.17326000
    1104.8   0.15686000
    1104.6   0.15339000
    1104.4   0.17985000
    1104.2   0.17132000
    1104.0   0.14798000
    1103.8   0.16543000
    1103.6   0.14468000
    1103.4   0.18992000
    1103.2   0.15836000
    1103.0   0.16104000
    1102.8   0.15369000
    1102.6   0.16430000
    1102.4   0.15986000
    1102.2   0.16840000
    1102.0   0.18512000
    1101.8   0.15311000
    1101.6   0.16965000
    1101.4   0.15246000
    1101.2   0.16580000
    1101.0   0.16221000
    1100.8   0.13952000
    1100.6   0.15509000
    1100.4   0.19027000
    1100.2   0.16958000
    1100.0   0.14979000
    1099.8   0.16576000
    1099.6   0.15985000
    1099.4   0.16489000
    1099.2   0.14819000
    1099.0   0.18010000
    1098.8   0.15256000
    1098.6   0.14640000
    1098.4   0.15882000
    1098.2   0.16229000
    1098.0   0.16164000
    1097.8   0.15011000
    1097.6   0.16491000
    1097.4   0.14912000
    1097.2   0.16740000
    1097.0   0.14878000
    1096.8   0.16664000
    1096.6   0.13780000
    1096.4   0.15268000
    1096.2   0.13830000
    1096.0   0.16053000
    1095.8   0.15600000
    1095.6   0.16339000
    1095.4   0.15168000
    1095.2   0.16840000
    1095.0   0.14065000
    1094.8   0.15482000
    1094.6   0.15116000
    1094.4   0.16233000
    1094.2   0.14115000
    1094.0   0.16207000
    1093.8   0.16094000
    1093.6   0.14577000
    1093.4   0.14709000
    1093.2   0.15671000
    1093.0   0.17015000
    1092.8   0.15742000
    1092.6   0.16740000
    1092.4   0.16426000
    1092.2   0.13595000
    1092.0   0.15279000
    1091.8   0.15179000
    1091.6   0.15180000
    1091.4   0.19872000
    1091.2   0.14805000
    1091.0   0.16304000
    1090.8   0.16280000
    1090.6   0.15413000
    1090.4   0.16621000
    1090.2   0.17321000
    1090.0   0.13694000
    1089.8   0.16739000
    1089.6   0.15879000
    1089.4   0.16170000
    1089.2   0.16110000
    1089.0   0.14627000
    1088.8   0.16135000
    1088.6   0.16263000
    1088.4   0.15636000
    1088.2   0.16620000
    1088.0   0.15446000
    1087.8   0.18535000
    1087.6   0.14932000
    1087.4   0.16830000
    1087.2   0.18191000
    1087.0   0.16982000
    1086.8   0.15482000
    1086.6   0.18503000
    1086.4   0.16697000
    1086.2   0.16903000
    1086.0   0.18440000
    1085.8   0.14289000
    1085.6   0.16315000
    1085.4   0.18947000
    1085.2   0.17647000
    1085.0   0.15663000
    1084.8   0.18287000
    1084.6   0.15645000
    1084.4   0.15805000
    1084.2   0.17744000
    1084.0   0.16638000
    1083.8   0.15908000
    1083.6   0.17267000
    1083.4   0.17232000
    1083.2   0.17858000
    1083.0   0.17140000
    1082.8   0.18004000
    1082.6   0.17265000
    1082.4   0.17436000
    1082.2   0.17143000
    1082.0   0.16984000
    1081.8   0.17267000
    1081.6   0.17218000
    1081.4   0.16828000
    1081.2   0.17380000
    1081.0   0.14891000
    1080.8   0.17796000
    1080.6   0.18357000
    1080.4   0.17559000
    1080.2   0.15475000
    1080.0   0.18786000
    1079.8   0.15766000
    1079.6   0.17142000
    1079.4   0.17366000
    1079.2   0.18318000
    1079.0   0.19629000
    1078.8   0.16993000
    1078.6   0.17555000
    1078.4   0.16388000
    1078.2   0.19620000
    1078.0   0.17407000
    1077.8   0.16794000
    1077.6   0.17570000
    1077.4   0.19479000
    1077.2   0.17057000
    1077.0   0.17862000
    1076.8   0.16827000
    1076.6   0.16963000
    1076.4   0.17107000
    1076.2   0.15921000
    1076.0   0.18127000
    1075.8   0.17875000
    1075.6   0.18639000
    1075.4   0.15485000
    1075.2   0.17728000
    1075.0   0.17698000
    1074.8   0.16183000
    1074.6   0.15808000
    1074.4   0.16944000
    1074.2   0.16920000
    1074.0   0.16598000
    1073.8   0.15597000
    1073.6   0.16084000
    1073.4   0.16890000
    1073.2   0.16426000
    1073.0   0.16010000
    1072.8   0.13965000
    1072.6   0.17063000
    1072.4   0.14797000
    1072.2   0.16668000
    1072.0   0.16043000
    1071.8   0.17270000
    1071.6   0.17887000
    1071.4   0.17204000
    1071.2   0.14671000
    1071.0   0.17367000
    1070.8   0.17926000
    1070.6   0.14356000
    1070.4   0.16352000
    1070.2   0.15678000
    1070.0   0.14411000
    1069.8   0.15671000
    1069.6   0.15067000
    1069.4   0.15540000
    1069.2   0.16524000
    1069.0   0.14761000
    1068.8   0.18506000
    1068.6   0.16260000
    1068.4   0.14374000
    1068.2   0.14019000
    1068.0   0.15538000
    1067.8   0.13713000
    1067.6   0.15751000
    1067.4   0.15040000
    1067.2   0.15260000
    1067.0   0.16519000
    1066.8   0.15501000
    1066.6   0.15643000
    1066.4   0.13598000
    1066.2   0.15274000
    1066.0   0.18594000
    1065.8   0.15416000
    1065.6   0.15087000
    1065.4   0.16496000
    1065.2   0.15099000
    1065.0   0.17384000
    1064.8   0.13958000
    1064.6   0.17703000
    1064.4   0.16647000
    1064.2   0.15236000
    1064.0   0.17053000
    1063.8   0.16947000
    1063.6   0.15287000
    1063.4   0.16603000
    1063.2   0.15149000
    1063.0   0.16493000
    1062.8   0.15292000
    1062.6   0.14100000
    1062.4   0.16143000
    1062.2   0.17849000
    1062.0   0.15704000
    1061.8   0.16367000
    1061.6   0.16178000
    1061.4   0.14847000
    1061.2   0.16325000
    1061.0   0.15434000
    1060.8   0.16802000
    1060.6   0.13954000
    1060.4   0.15432000
    1060.2   0.14222000
    1060.0   0.15703000
    1059.8   0.16045000
    1059.6   0.14095000
    1059.4   0.15423000
    1059.2   0.15674000
    1059.0   0.13343000
    1058.8   0.15129000
    1058.6   0.16446000
    1058.4   0.14786000
    1058.2   0.16946000
    1058.0   0.14263000
    1057.8   0.14195000
    1057.6   0.16899000
    1057.4   0.16293000
    1057.2   0.15797000
    1057.0   0.15109000
    1056.8   0.14450000
    1056.6   0.14862000
    1056.4   0.13830000
    1056.2   0.15704000
    1056.0   0.14064000
    1055.8   0.15890000
    1055.6   0.14280000
    1055.4   0.14895000
    1055.2   0.15690000
    1055.0   0.18129000
    1054.8   0.14587000
    1054.6   0.14950000
    1054.4   0.14041000
    1054.2   0.15366000
    1054.0   0.16773000
    1053.8   0.15940000
    1053.6   0.13581000
    1053.4   0.15236000
    1053.2   0.16722000
    1053.0   0.15864000
    1052.8   0.14965000
    1052.6   0.12942000
    1052.4   0.15207000
    1052.2   0.15849000
    1052.0   0.16060000
    1051.8   0.16339000
    1051.6   0.16807000
    1051.4   0.13679000
    1051.2   0.16780000
    1051.0   0.16100000
    1050.8   0.15698000
    1050.6   0.15778000
    1050.4   0.16631000
    1050.2   0.15926000
    1050.0   0.15811000
    1049.8   0.15349000
    1049.6   0.15533000
    1049.4   0.14346000
    1049.2   0.15514000
    1049.0   0.15283000
    1048.8   0.15976000
    1048.6   0.14073000
    1048.4   0.16494000
    1048.2   0.16459000
    1048.0   0.17325000
    1047.8   0.15978000
    1047.6   0.14948000
    1047.4   0.14215000
    1047.2   0.15320000
    1047.0   0.15067000
    1046.8   0.14053000
    1046.6   0.15143000
    1046.4   0.15745000
    1046.2   0.14344000
    1046.0   0.15752000
    1045.8   0.14487000
    1045.6   0.15140000
    1045.4   0.15875000
    1045.2   0.13655000
    1045.0   0.15846000
    1044.8   0.12887000
    1044.6   0.15706000
    1044.4   0.14716000
    1044.2   0.15234000
    1044.0   0.14994000
    1043.8   0.14678000
    1043.6   0.14379000
    1043.4   0.14943000
    1043.2   0.15804000
    1043.0   0.13798000
    1042.8   0.13943000
    1042.6   0.14821000
    1042.4   0.15432000
    1042.2   0.12101000
    1042.0   0.16970000
    1041.8   0.16039000
    1041.6   0.14704000
    1041.4   0.14952000
    1041.2   0.14312000
    1041.0   0.15216000
    1040.8   0.13209000
    1040.6   0.15191000
    1040.4   0.14021000
    1040.2   0.15597000
    1040.0   0.15108000
    1039.8   0.13088000
    1039.6   0.15112000
    1039.4   0.14910000
    1039.2   0.13476000
    1039.0   0.14636000
    1038.8   0.14873000
    1038.6   0.16387000
    1038.4   0.14378000
    1038.2   0.13394000
    1038.0   0.16875000
    1037.8   0.14836000
    1037.6   0.16037000
    1037.4   0.14692000
    1037.2   0.14308000
    1037.0   0.13925000
    1036.8   0.15728000
    1036.6   0.14772000
