# GMOS-S transmission curve for i'
# Columns are (1) wavelength in nm, (2) transmission in %.
# Data are from scans of the delivered filters for GMOS-S
# Scanned by Cristian Moreno, June 2017 
# Table: Filtros FW1-2 Stand down June 2017_graph.xls
# Author: Hwihyun Kim
# Created: August 29, 2017
#
# Effective wavelength
# 780.0
# lambda i_G0327
#
    1200.0  51.42000000
    1199.8  50.89100000
    1199.6  50.35400000
    1199.4  49.81800000
    1199.2  49.34900000
    1199.0  48.85700000
    1198.8  48.34500000
    1198.6  47.83100000
    1198.4  47.39200000
    1198.2  46.90200000
    1198.0  46.46600000
    1197.8  45.94400000
    1197.6  45.53500000
    1197.4  45.09200000
    1197.2  44.64000000
    1197.0  44.19000000
    1196.8  43.73200000
    1196.6  43.36600000
    1196.4  42.94000000
    1196.2  42.50600000
    1196.0  42.12800000
    1195.8  41.73900000
    1195.6  41.36900000
    1195.4  40.98200000
    1195.2  40.61200000
    1195.0  40.26000000
    1194.8  39.91500000
    1194.6  39.57400000
    1194.4  39.23000000
    1194.2  38.90600000
    1194.0  38.57900000
    1193.8  38.26700000
    1193.6  37.93700000
    1193.4  37.63000000
    1193.2  37.32700000
    1193.0  37.07300000
    1192.8  36.78200000
    1192.6  36.48500000
    1192.4  36.25200000
    1192.2  35.98100000
    1192.0  35.71500000
    1191.8  35.48100000
    1191.6  35.20700000
    1191.4  34.99700000
    1191.2  34.75600000
    1191.0  34.52100000
    1190.8  34.30800000
    1190.6  34.09600000
    1190.4  33.88600000
    1190.2  33.69900000
    1190.0  33.48400000
    1189.8  33.30400000
    1189.6  33.12300000
    1189.4  32.94800000
    1189.2  32.77500000
    1189.0  32.59000000
    1188.8  32.43700000
    1188.6  32.29600000
    1188.4  32.10600000
    1188.2  31.99200000
    1188.0  31.84500000
    1187.8  31.71800000
    1187.6  31.59200000
    1187.4  31.45900000
    1187.2  31.35000000
    1187.0  31.23800000
    1186.8  31.15500000
    1186.6  31.02900000
    1186.4  30.93500000
    1186.2  30.84900000
    1186.0  30.78100000
    1185.8  30.68100000
    1185.6  30.61100000
    1185.4  30.54700000
    1185.2  30.48700000
    1185.0  30.44100000
    1184.8  30.40000000
    1184.6  30.34200000
    1184.4  30.31900000
    1184.2  30.26700000
    1184.0  30.24700000
    1183.8  30.23400000
    1183.6  30.22600000
    1183.4  30.21000000
    1183.2  30.19500000
    1183.0  30.20200000
    1182.8  30.20500000
    1182.6  30.21500000
    1182.4  30.24200000
    1182.2  30.27300000
    1182.0  30.28600000
    1181.8  30.31700000
    1181.6  30.36500000
    1181.4  30.43800000
    1181.2  30.49200000
    1181.0  30.53100000
    1180.8  30.61400000
    1180.6  30.67500000
    1180.4  30.76600000
    1180.2  30.84600000
    1180.0  30.96000000
    1179.8  31.06700000
    1179.6  31.16500000
    1179.4  31.29000000
    1179.2  31.40800000
    1179.0  31.55900000
    1178.8  31.67900000
    1178.6  31.84400000
    1178.4  31.96100000
    1178.2  32.14600000
    1178.0  32.33800000
    1177.8  32.49900000
    1177.6  32.69300000
    1177.4  32.88800000
    1177.2  33.10100000
    1177.0  33.29900000
    1176.8  33.53500000
    1176.6  33.75800000
    1176.4  34.01400000
    1176.2  34.26300000
    1176.0  34.53700000
    1175.8  34.82700000
    1175.6  35.10000000
    1175.4  35.42100000
    1175.2  35.70100000
    1175.0  36.02800000
    1174.8  36.34900000
    1174.6  36.71900000
    1174.4  37.06300000
    1174.2  37.43100000
    1174.0  37.81000000
    1173.8  38.21600000
    1173.6  38.60200000
    1173.4  39.08200000
    1173.2  39.47800000
    1173.0  39.95400000
    1172.8  40.44000000
    1172.6  40.93400000
    1172.4  41.44500000
    1172.2  41.94700000
    1172.0  42.50600000
    1171.8  43.05400000
    1171.6  43.62800000
    1171.4  44.19000000
    1171.2  44.83800000
    1171.0  45.41900000
    1170.8  46.13800000
    1170.6  46.72000000
    1170.4  47.43100000
    1170.2  48.15700000
    1170.0  48.89900000
    1169.8  49.63400000
    1169.6  50.37400000
    1169.4  51.22900000
    1169.2  51.98400000
    1169.0  52.81700000
    1168.8  53.61200000
    1168.6  54.50600000
    1168.4  55.35600000
    1168.2  56.33700000
    1168.0  57.15000000
    1167.8  58.14800000
    1167.6  59.09900000
    1167.4  60.08900000
    1167.2  61.05200000
    1167.0  62.03000000
    1166.8  63.13500000
    1166.6  64.05200000
    1166.4  65.12800000
    1166.2  66.08500000
    1166.0  67.13300000
    1165.8  68.11600000
    1165.6  69.21000000
    1165.4  70.15700000
    1165.2  71.16000000
    1165.0  72.12400000
    1164.8  73.11800000
    1164.6  74.00100000
    1164.4  74.92900000
    1164.2  75.86000000
    1164.0  76.64800000
    1163.8  77.46600000
    1163.6  78.09400000
    1163.4  78.84500000
    1163.2  79.43000000
    1163.0  79.98400000
    1162.8  80.41700000
    1162.6  80.82700000
    1162.4  81.12000000
    1162.2  81.34800000
    1162.0  81.48100000
    1161.8  81.53600000
    1161.6  81.48500000
    1161.4  81.30800000
    1161.2  81.09000000
    1161.0  80.79400000
    1160.8  80.27800000
    1160.6  79.84200000
    1160.4  79.17700000
    1160.2  78.55900000
    1160.0  77.76700000
    1159.8  76.92300000
    1159.6  75.97500000
    1159.4  74.95100000
    1159.2  73.88400000
    1159.0  72.67600000
    1158.8  71.47000000
    1158.6  70.25100000
    1158.4  69.00600000
    1158.2  67.55300000
    1158.0  66.31600000
    1157.8  64.91000000
    1157.6  63.61600000
    1157.4  62.10000000
    1157.2  60.74900000
    1157.0  59.32000000
    1156.8  57.95600000
    1156.6  56.55900000
    1156.4  55.12700000
    1156.2  53.65600000
    1156.0  52.32600000
    1155.8  50.94400000
    1155.6  49.50600000
    1155.4  48.21500000
    1155.2  46.94100000
    1155.0  45.82900000
    1154.8  44.50000000
    1154.6  43.33200000
    1154.4  42.16600000
    1154.2  41.04200000
    1154.0  39.89700000
    1153.8  38.84000000
    1153.6  37.67500000
    1153.4  36.77800000
    1153.2  35.76600000
    1153.0  34.78000000
    1152.8  33.86000000
    1152.6  32.98800000
    1152.4  32.14700000
    1152.2  31.23200000
    1152.0  30.47600000
    1151.8  29.73100000
    1151.6  29.00400000
    1151.4  28.28700000
    1151.2  27.53900000
    1151.0  26.85200000
    1150.8  26.22300000
    1150.6  25.61700000
    1150.4  24.92500000
    1150.2  24.37200000
    1150.0  23.81600000
    1149.8  23.32500000
    1149.6  22.79600000
    1149.4  22.30300000
    1149.2  21.84300000
    1149.0  21.37200000
    1148.8  20.92900000
    1148.6  20.49700000
    1148.4  20.08700000
    1148.2  19.70600000
    1148.0  19.33700000
    1147.8  18.95300000
    1147.6  18.61300000
    1147.4  18.29400000
    1147.2  17.98000000
    1147.0  17.65200000
    1146.8  17.32100000
    1146.6  17.07300000
    1146.4  16.81700000
    1146.2  16.55800000
    1146.0  16.30900000
    1145.8  16.07900000
    1145.6  15.86600000
    1145.4  15.63800000
    1145.2  15.41700000
    1145.0  15.23700000
    1144.8  15.03900000
    1144.6  14.87300000
    1144.4  14.69000000
    1144.2  14.54400000
    1144.0  14.37800000
    1143.8  14.27200000
    1143.6  14.11200000
    1143.4  14.00200000
    1143.2  13.88000000
    1143.0  13.79600000
    1142.8  13.68200000
    1142.6  13.60100000
    1142.4  13.51300000
    1142.2  13.42800000
    1142.0  13.37000000
    1141.8  13.30400000
    1141.6  13.23900000
    1141.4  13.22300000
    1141.2  13.16800000
    1141.0  13.17200000
    1140.8  13.15000000
    1140.6  13.13700000
    1140.4  13.13800000
    1140.2  13.16600000
    1140.0  13.17200000
    1139.8  13.20600000
    1139.6  13.25000000
    1139.4  13.30200000
    1139.2  13.34400000
    1139.0  13.43200000
    1138.8  13.51100000
    1138.6  13.62500000
    1138.4  13.70600000
    1138.2  13.84500000
    1138.0  13.98700000
    1137.8  14.13700000
    1137.6  14.29300000
    1137.4  14.47700000
    1137.2  14.68400000
    1137.0  14.87800000
    1136.8  15.13600000
    1136.6  15.40600000
    1136.4  15.69200000
    1136.2  16.02900000
    1136.0  16.31600000
    1135.8  16.70400000
    1135.6  17.07200000
    1135.4  17.52900000
    1135.2  17.97100000
    1135.0  18.51000000
    1134.8  19.10900000
    1134.6  19.73400000
    1134.4  20.36300000
    1134.2  21.16800000
    1134.0  21.96400000
    1133.8  22.89600000
    1133.6  23.80800000
    1133.4  24.88800000
    1133.2  26.11000000
    1133.0  27.43300000
    1132.8  28.86600000
    1132.6  30.38100000
    1132.4  32.15100000
    1132.2  34.01700000
    1132.0  36.13400000
    1131.8  38.31000000
    1131.6  40.82400000
    1131.4  43.77400000
    1131.2  46.70800000
    1131.0  49.78100000
    1130.8  53.10500000
    1130.6  56.49500000
    1130.4  59.80300000
    1130.2  63.31900000
    1130.0  66.26300000
    1129.8  69.16400000
    1129.6  71.59100000
    1129.4  73.29800000
    1129.2  74.21500000
    1129.0  74.41900000
    1128.8  73.76500000
    1128.6  72.31300000
    1128.4  70.03200000
    1128.2  67.13000000
    1128.0  63.43600000
    1127.8  59.47100000
    1127.6  55.09400000
    1127.4  50.61100000
    1127.2  46.32600000
    1127.0  41.91100000
    1126.8  37.83700000
    1126.6  34.15300000
    1126.4  30.72400000
    1126.2  27.31800000
    1126.0  24.39100000
    1125.8  21.78200000
    1125.6  19.48900000
    1125.4  17.32900000
    1125.2  15.46500000
    1125.0  13.85100000
    1124.8  12.46900000
    1124.6  11.19000000
    1124.4  10.05600000
    1124.2   9.04850000
    1124.0   8.23110000
    1123.8   7.47310000
    1123.6   6.77470000
    1123.4   6.20050000
    1123.2   5.66560000
    1123.0   5.20730000
    1122.8   4.79100000
    1122.6   4.36670000
    1122.4   4.03130000
    1122.2   3.68400000
    1122.0   3.44510000
    1121.8   3.17700000
    1121.6   2.94340000
    1121.4   2.75360000
    1121.2   2.54670000
    1121.0   2.36880000
    1120.8   2.24020000
    1120.6   2.06890000
    1120.4   1.95990000
    1120.2   1.81610000
    1120.0   1.69160000
    1119.8   1.58180000
    1119.6   1.50310000
    1119.4   1.42020000
    1119.2   1.33330000
    1119.0   1.26770000
    1118.8   1.21050000
    1118.6   1.13950000
    1118.4   1.05210000
    1118.2   1.01880000
    1118.0   0.96296000
    1117.8   0.90727000
    1117.6   0.88029000
    1117.4   0.84314000
    1117.2   0.79490000
    1117.0   0.75326000
    1116.8   0.74267000
    1116.6   0.67814000
    1116.4   0.66908000
    1116.2   0.64519000
    1116.0   0.61964000
    1115.8   0.59345000
    1115.6   0.56662000
    1115.4   0.54544000
    1115.2   0.52144000
    1115.0   0.50633000
    1114.8   0.46733000
    1114.6   0.45656000
    1114.4   0.45201000
    1114.2   0.43254000
    1114.0   0.43554000
    1113.8   0.41615000
    1113.6   0.40370000
    1113.4   0.38751000
    1113.2   0.36769000
    1113.0   0.38257000
    1112.8   0.34829000
    1112.6   0.33600000
    1112.4   0.34193000
    1112.2   0.32851000
    1112.0   0.31201000
    1111.8   0.31218000
    1111.6   0.30614000
    1111.4   0.28970000
    1111.2   0.28681000
    1111.0   0.27234000
    1110.8   0.27164000
    1110.6   0.26776000
    1110.4   0.24546000
    1110.2   0.25288000
    1110.0   0.24405000
    1109.8   0.25445000
    1109.6   0.25164000
    1109.4   0.22582000
    1109.2   0.25888000
    1109.0   0.23374000
    1108.8   0.22783000
    1108.6   0.23025000
    1108.4   0.22665000
    1108.2   0.21553000
    1108.0   0.20529000
    1107.8   0.21200000
    1107.6   0.20301000
    1107.4   0.19570000
    1107.2   0.18515000
    1107.0   0.20182000
    1106.8   0.19883000
    1106.6   0.19890000
    1106.4   0.18387000
    1106.2   0.18793000
    1106.0   0.17127000
    1105.8   0.17706000
    1105.6   0.17615000
    1105.4   0.18785000
    1105.2   0.15035000
    1105.0   0.16235000
    1104.8   0.18673000
    1104.6   0.15937000
    1104.4   0.17575000
    1104.2   0.18494000
    1104.0   0.15406000
    1103.8   0.16544000
    1103.6   0.15076000
    1103.4   0.15758000
    1103.2   0.15833000
    1103.0   0.14632000
    1102.8   0.17282000
    1102.6   0.15351000
    1102.4   0.15792000
    1102.2   0.16064000
    1102.0   0.15971000
    1101.8   0.15466000
    1101.6   0.16494000
    1101.4   0.14924000
    1101.2   0.16305000
    1101.0   0.14582000
    1100.8   0.13512000
    1100.6   0.16225000
    1100.4   0.14922000
    1100.2   0.16331000
    1100.0   0.16050000
    1099.8   0.14733000
    1099.6   0.14472000
    1099.4   0.14543000
    1099.2   0.14986000
    1099.0   0.16240000
    1098.8   0.14324000
    1098.6   0.14383000
    1098.4   0.15711000
    1098.2   0.13422000
    1098.0   0.14817000
    1097.8   0.12612000
    1097.6   0.14541000
    1097.4   0.14466000
    1097.2   0.13583000
    1097.0   0.14902000
    1096.8   0.14621000
    1096.6   0.12361000
    1096.4   0.13966000
    1096.2   0.12438000
    1096.0   0.13639000
    1095.8   0.15099000
    1095.6   0.14575000
    1095.4   0.13173000
    1095.2   0.13297000
    1095.0   0.14132000
    1094.8   0.13343000
    1094.6   0.13159000
    1094.4   0.13659000
    1094.2   0.13571000
    1094.0   0.13791000
    1093.8   0.13189000
    1093.6   0.12561000
    1093.4   0.12805000
    1093.2   0.13112000
    1093.0   0.13103000
    1092.8   0.14229000
    1092.6   0.13585000
    1092.4   0.13869000
    1092.2   0.11951000
    1092.0   0.13354000
    1091.8   0.13266000
    1091.6   0.10951000
    1091.4   0.16037000
    1091.2   0.12404000
    1091.0   0.13424000
    1090.8   0.13842000
    1090.6   0.13450000
    1090.4   0.13490000
    1090.2   0.13979000
    1090.0   0.11257000
    1089.8   0.14375000
    1089.6   0.14095000
    1089.4   0.13873000
    1089.2   0.14127000
    1089.0   0.13457000
    1088.8   0.12322000
    1088.6   0.14295000
    1088.4   0.12333000
    1088.2   0.13764000
    1088.0   0.13241000
    1087.8   0.14381000
    1087.6   0.11089000
    1087.4   0.14428000
    1087.2   0.14878000
    1087.0   0.14245000
    1086.8   0.12299000
    1086.6   0.13071000
    1086.4   0.13044000
    1086.2   0.13367000
    1086.0   0.13832000
    1085.8   0.13090000
    1085.6   0.13097000
    1085.4   0.14377000
    1085.2   0.13822000
    1085.0   0.12476000
    1084.8   0.14532000
    1084.6   0.12333000
    1084.4   0.14997000
    1084.2   0.13527000
    1084.0   0.13512000
    1083.8   0.13845000
    1083.6   0.13941000
    1083.4   0.13825000
    1083.2   0.13388000
    1083.0   0.14447000
    1082.8   0.11872000
    1082.6   0.13341000
    1082.4   0.12480000
    1082.2   0.15161000
    1082.0   0.15333000
    1081.8   0.12454000
    1081.6   0.13213000
    1081.4   0.13373000
    1081.2   0.12779000
    1081.0   0.11433000
    1080.8   0.12265000
    1080.6   0.14111000
    1080.4   0.12330000
    1080.2   0.12632000
    1080.0   0.14272000
    1079.8   0.13206000
    1079.6   0.12925000
    1079.4   0.11978000
    1079.2   0.13199000
    1079.0   0.14382000
    1078.8   0.13544000
    1078.6   0.13046000
    1078.4   0.11256000
    1078.2   0.15172000
    1078.0   0.11427000
    1077.8   0.13799000
    1077.6   0.13973000
    1077.4   0.14343000
    1077.2   0.12573000
    1077.0   0.12919000
    1076.8   0.13513000
    1076.6   0.11999000
    1076.4   0.14995000
    1076.2   0.12324000
    1076.0   0.12928000
    1075.8   0.13338000
    1075.6   0.15476000
    1075.4   0.11400000
    1075.2   0.14277000
    1075.0   0.13485000
    1074.8   0.11670000
    1074.6   0.11592000
    1074.4   0.13317000
    1074.2   0.14505000
    1074.0   0.13142000
    1073.8   0.11652000
    1073.6   0.12025000
    1073.4   0.13719000
    1073.2   0.12251000
    1073.0   0.11718000
    1072.8   0.11301000
    1072.6   0.14351000
    1072.4   0.12397000
    1072.2   0.14365000
    1072.0   0.11793000
    1071.8   0.13798000
    1071.6   0.12452000
    1071.4   0.15381000
    1071.2   0.12443000
    1071.0   0.14815000
    1070.8   0.11954000
    1070.6   0.13428000
    1070.4   0.13955000
    1070.2   0.13774000
    1070.0   0.10054000
    1069.8   0.13921000
    1069.6   0.12898000
    1069.4   0.13462000
    1069.2   0.13809000
    1069.0   0.14782000
    1068.8   0.14607000
    1068.6   0.13222000
    1068.4   0.11822000
    1068.2   0.12257000
    1068.0   0.12883000
    1067.8   0.11438000
    1067.6   0.12703000
    1067.4   0.16020000
    1067.2   0.15021000
    1067.0   0.14657000
    1066.8   0.14396000
    1066.6   0.13743000
    1066.4   0.11383000
    1066.2   0.12908000
    1066.0   0.14512000
    1065.8   0.15306000
    1065.6   0.12150000
    1065.4   0.12731000
    1065.2   0.12568000
    1065.0   0.14954000
    1064.8   0.12270000
    1064.6   0.13489000
    1064.4   0.13591000
    1064.2   0.13667000
    1064.0   0.14974000
    1063.8   0.14549000
    1063.6   0.13646000
    1063.4   0.15163000
    1063.2   0.12736000
    1063.0   0.12273000
    1062.8   0.14064000
    1062.6   0.13197000
    1062.4   0.14707000
    1062.2   0.13193000
    1062.0   0.13797000
    1061.8   0.15009000
    1061.6   0.12921000
    1061.4   0.13603000
    1061.2   0.13947000
    1061.0   0.12584000
    1060.8   0.13050000
    1060.6   0.12147000
    1060.4   0.12270000
    1060.2   0.12407000
    1060.0   0.13316000
    1059.8   0.11998000
    1059.6   0.11823000
    1059.4   0.12590000
    1059.2   0.12148000
    1059.0   0.11063000
    1058.8   0.11544000
    1058.6   0.11664000
    1058.4   0.13898000
    1058.2   0.11823000
    1058.0   0.13945000
    1057.8   0.11083000
    1057.6   0.15708000
    1057.4   0.11814000
    1057.2   0.11419000
    1057.0   0.12990000
    1056.8   0.14628000
    1056.6   0.12168000
    1056.4   0.13801000
    1056.2   0.11468000
    1056.0   0.11921000
    1055.8   0.13204000
    1055.6   0.12617000
    1055.4   0.12701000
    1055.2   0.13092000
    1055.0   0.14059000
    1054.8   0.13045000
    1054.6   0.13713000
    1054.4   0.11594000
    1054.2   0.13602000
    1054.0   0.13231000
    1053.8   0.12946000
    1053.6   0.11793000
    1053.4   0.12506000
    1053.2   0.14012000
    1053.0   0.13688000
    1052.8   0.12280000
    1052.6   0.11042000
    1052.4   0.12828000
    1052.2   0.13480000
    1052.0   0.13206000
    1051.8   0.13381000
    1051.6   0.12820000
    1051.4   0.10818000
    1051.2   0.13032000
    1051.0   0.13712000
    1050.8   0.12269000
    1050.6   0.13852000
    1050.4   0.13106000
    1050.2   0.13032000
    1050.0   0.12572000
    1049.8   0.12667000
    1049.6   0.13511000
    1049.4   0.11650000
    1049.2   0.13179000
    1049.0   0.13024000
    1048.8   0.12106000
    1048.6   0.12879000
    1048.4   0.13325000
    1048.2   0.13145000
    1048.0   0.13940000
    1047.8   0.11662000
    1047.6   0.12566000
    1047.4   0.12000000
    1047.2   0.13620000
    1047.0   0.12417000
    1046.8   0.13768000
    1046.6   0.11381000
    1046.4   0.12880000
    1046.2   0.11994000
    1046.0   0.14707000
    1045.8   0.11080000
    1045.6   0.13484000
    1045.4   0.13623000
    1045.2   0.11851000
    1045.0   0.13324000
    1044.8   0.10472000
    1044.6   0.11507000
    1044.4   0.10791000
    1044.2   0.13318000
    1044.0   0.13500000
    1043.8   0.11220000
    1043.6   0.13907000
    1043.4   0.13755000
    1043.2   0.13444000
    1043.0   0.11551000
    1042.8   0.11692000
    1042.6   0.13911000
    1042.4   0.13639000
    1042.2   0.10613000
    1042.0   0.13278000
    1041.8   0.11964000
    1041.6   0.13946000
    1041.4   0.10141000
    1041.2   0.13545000
    1041.0   0.13179000
    1040.8   0.13819000
    1040.6   0.12629000
    1040.4   0.12775000
    1040.2   0.13627000
    1040.0   0.12021000
    1039.8   0.11582000
    1039.6   0.13109000
    1039.4   0.11532000
    1039.2   0.11536000
    1039.0   0.12035000
    1038.8   0.13042000
    1038.6   0.12271000
    1038.4   0.12611000
    1038.2   0.12231000
    1038.0   0.14175000
    1037.8   0.13156000
    1037.6   0.14249000
    1037.4   0.13258000
    1037.2   0.11949000
    1037.0   0.11107000
    1036.8   0.11465000
    1036.6   0.12988000
